* Electrode material: NCA
* Source dH: Matthieu Dubarry 2022
* Source dS: set to zero
* Author: Wolfgang Bessler 10/2022
* x []          dH [J/mol]      dS [J/mol/K]
0.9500000	-316169.436	0.000000
0.9492290	-317164.653	0.000000
0.9484580	-318159.870	0.000000
0.9476870	-318267.569	0.000000
0.9469160	-319984.491	0.000000
0.9461450	-320768.609	0.000000
0.9453740	-321544.036	0.000000
0.9446030	-322240.600	0.000000
0.9438320	-322892.409	0.000000
0.9430610	-323545.784	0.000000
0.9422900	-324164.379	0.000000
0.9415190	-324726.141	0.000000
0.9407480	-325284.658	0.000000
0.9399770	-325842.460	0.000000
0.9392060	-326329.465	0.000000
0.9384350	-326816.007	0.000000
0.9376640	-327303.151	0.000000
0.9368930	-327736.971	0.000000
0.9361220	-328156.211	0.000000
0.9353510	-328606.060	0.000000
0.9345800	-328999.545	0.000000
0.9338090	-329357.133	0.000000
0.9330380	-329742.373	0.000000
0.9322670	-330101.335	0.000000
0.9314960	-330422.965	0.000000
0.9307250	-330757.044	0.000000
0.9299540	-331090.289	0.000000
0.9291830	-331381.974	0.000000
0.9284120	-331664.418	0.000000
0.9276410	-331967.294	0.000000
0.9268700	-332243.561	0.000000
0.9260990	-332512.395	0.000000
0.9253280	-332789.829	0.000000
0.9245570	-333061.357	0.000000
0.9237860	-333313.106	0.000000
0.9230150	-333558.116	0.000000
0.9222440	-333809.593	0.000000
0.9214730	-334039.255	0.000000
0.9207020	-334274.870	0.000000
0.9199310	-334496.434	0.000000
0.9191600	-334709.445	0.000000
0.9183890	-334916.172	0.000000
0.9176180	-335119.748	0.000000
0.9168470	-335321.102	0.000000
0.9160760	-335514.423	0.000000
0.9153050	-335700.200	0.000000
0.9145340	-335882.010	0.000000
0.9137630	-336059.067	0.000000
0.9129920	-336229.248	0.000000
0.9122210	-336393.395	0.000000
0.9114500	-336553.963	0.000000
0.9106790	-336709.407	0.000000
0.9099080	-336858.470	0.000000
0.9091370	-337005.653	0.000000
0.9083660	-337148.207	0.000000
0.9075950	-337285.028	0.000000
0.9068240	-337420.158	0.000000
0.9060530	-337552.709	0.000000
0.9052820	-337681.086	0.000000
0.9045110	-337807.029	0.000000
0.9037400	-337931.781	0.000000
0.9029690	-338053.004	0.000000
0.9021980	-338171.204	0.000000
0.9014270	-338289.087	0.000000
0.9006560	-338403.284	0.000000
0.8998850	-338514.536	0.000000
0.8991140	-338625.682	0.000000
0.8983430	-338733.620	0.000000
0.8975720	-338839.610	0.000000
0.8968010	-338944.745	0.000000
0.8960300	-339047.512	0.000000
0.8952590	-339147.036	0.000000
0.8944880	-339245.469	0.000000
0.8937170	-339341.481	0.000000
0.8929460	-339433.466	0.000000
0.8921750	-339525.561	0.000000
0.8914040	-339616.678	0.000000
0.8906330	-339704.295	0.000000
0.8898620	-339790.478	0.000000
0.8890910	-339874.522	0.000000
0.8883200	-339956.514	0.000000
0.8875490	-340037.805	0.000000
0.8867780	-340119.780	0.000000
0.8860070	-340199.523	0.000000
0.8852360	-340278.489	0.000000
0.8844650	-340357.699	0.000000
0.8836940	-340434.010	0.000000
0.8829230	-340508.632	0.000000
0.8821520	-340583.745	0.000000
0.8813810	-340658.929	0.000000
0.8806100	-340732.491	0.000000
0.8798390	-340805.876	0.000000
0.8790680	-340877.527	0.000000
0.8782970	-340947.513	0.000000
0.8775260	-341017.857	0.000000
0.8767550	-341088.528	0.000000
0.8759840	-341157.747	0.000000
0.8752130	-341226.859	0.000000
0.8744420	-341295.659	0.000000
0.8736710	-341364.076	0.000000
0.8729000	-341430.890	0.000000
0.8721290	-341499.002	0.000000
0.8713580	-341565.072	0.000000
0.8705870	-341631.603	0.000000
0.8698160	-341697.927	0.000000
0.8690450	-341763.129	0.000000
0.8682740	-341826.685	0.000000
0.8675030	-341890.267	0.000000
0.8667320	-341953.793	0.000000
0.8659610	-342016.788	0.000000
0.8651900	-342078.006	0.000000
0.8644190	-342139.788	0.000000
0.8636480	-342200.589	0.000000
0.8628770	-342262.251	0.000000
0.8621060	-342323.348	0.000000
0.8613350	-342384.854	0.000000
0.8605640	-342445.993	0.000000
0.8597930	-342507.463	0.000000
0.8590220	-342568.098	0.000000
0.8582510	-342628.882	0.000000
0.8574800	-342689.106	0.000000
0.8567090	-342750.406	0.000000
0.8559380	-342810.830	0.000000
0.8551670	-342871.918	0.000000
0.8543960	-342931.810	0.000000
0.8536250	-342992.338	0.000000
0.8528540	-343053.018	0.000000
0.8520830	-343113.622	0.000000
0.8513120	-343174.019	0.000000
0.8505410	-343234.379	0.000000
0.8497700	-343294.268	0.000000
0.8489990	-343354.881	0.000000
0.8482280	-343414.501	0.000000
0.8474570	-343475.407	0.000000
0.8466860	-343534.049	0.000000
0.8459150	-343594.979	0.000000
0.8451440	-343654.827	0.000000
0.8443730	-343713.834	0.000000
0.8436020	-343773.359	0.000000
0.8428310	-343833.895	0.000000
0.8420600	-343894.634	0.000000
0.8412890	-343955.136	0.000000
0.8405180	-344015.362	0.000000
0.8397470	-344076.177	0.000000
0.8389760	-344136.622	0.000000
0.8382050	-344197.624	0.000000
0.8374340	-344257.788	0.000000
0.8366630	-344318.504	0.000000
0.8358920	-344379.686	0.000000
0.8351210	-344440.924	0.000000
0.8343500	-344501.446	0.000000
0.8335790	-344562.044	0.000000
0.8328080	-344623.460	0.000000
0.8320370	-344685.065	0.000000
0.8312660	-344746.493	0.000000
0.8304950	-344807.845	0.000000
0.8297240	-344869.294	0.000000
0.8289530	-344931.162	0.000000
0.8281820	-344993.892	0.000000
0.8274110	-345055.695	0.000000
0.8266400	-345118.058	0.000000
0.8258690	-345180.340	0.000000
0.8250980	-345243.272	0.000000
0.8243270	-345305.938	0.000000
0.8235560	-345369.433	0.000000
0.8227850	-345433.195	0.000000
0.8220140	-345496.796	0.000000
0.8212430	-345561.390	0.000000
0.8204720	-345626.039	0.000000
0.8197010	-345689.580	0.000000
0.8189300	-345753.619	0.000000
0.8181590	-345817.374	0.000000
0.8173880	-345881.787	0.000000
0.8166170	-345945.950	0.000000
0.8158460	-346010.316	0.000000
0.8150750	-346074.147	0.000000
0.8143040	-346138.300	0.000000
0.8135330	-346202.941	0.000000
0.8127620	-346267.484	0.000000
0.8119910	-346331.346	0.000000
0.8112200	-346396.713	0.000000
0.8104490	-346461.438	0.000000
0.8096780	-346526.564	0.000000
0.8089070	-346591.947	0.000000
0.8081360	-346658.307	0.000000
0.8073650	-346724.372	0.000000
0.8065940	-346791.350	0.000000
0.8058230	-346857.681	0.000000
0.8050520	-346923.904	0.000000
0.8042810	-346990.659	0.000000
0.8035100	-347057.992	0.000000
0.8027390	-347124.452	0.000000
0.8019680	-347191.964	0.000000
0.8011970	-347259.376	0.000000
0.8004260	-347326.751	0.000000
0.7996550	-347393.152	0.000000
0.7988840	-347459.515	0.000000
0.7981130	-347526.260	0.000000
0.7973420	-347593.976	0.000000
0.7965710	-347661.421	0.000000
0.7958000	-347728.843	0.000000
0.7950290	-347795.723	0.000000
0.7942580	-347864.017	0.000000
0.7934870	-347931.754	0.000000
0.7927160	-347999.536	0.000000
0.7919450	-348067.301	0.000000
0.7911740	-348135.067	0.000000
0.7904030	-348203.435	0.000000
0.7896320	-348271.784	0.000000
0.7888610	-348339.555	0.000000
0.7880900	-348407.524	0.000000
0.7873190	-348475.736	0.000000
0.7865480	-348543.446	0.000000
0.7857770	-348611.181	0.000000
0.7850060	-348679.398	0.000000
0.7842350	-348747.602	0.000000
0.7834640	-348815.220	0.000000
0.7826930	-348883.586	0.000000
0.7819220	-348952.059	0.000000
0.7811510	-349019.851	0.000000
0.7803800	-349088.127	0.000000
0.7796090	-349156.270	0.000000
0.7788380	-349224.587	0.000000
0.7780670	-349293.372	0.000000
0.7772960	-349362.378	0.000000
0.7765250	-349430.681	0.000000
0.7757540	-349499.421	0.000000
0.7749830	-349567.822	0.000000
0.7742120	-349636.476	0.000000
0.7734410	-349704.913	0.000000
0.7726700	-349773.892	0.000000
0.7718990	-349842.271	0.000000
0.7711280	-349910.715	0.000000
0.7703570	-349978.843	0.000000
0.7695860	-350046.921	0.000000
0.7688150	-350115.066	0.000000
0.7680440	-350183.306	0.000000
0.7672730	-350251.476	0.000000
0.7665020	-350320.071	0.000000
0.7657310	-350388.290	0.000000
0.7649600	-350455.659	0.000000
0.7641890	-350522.586	0.000000
0.7634180	-350589.500	0.000000
0.7626470	-350656.242	0.000000
0.7618760	-350723.537	0.000000
0.7611050	-350790.379	0.000000
0.7603340	-350857.002	0.000000
0.7595630	-350923.029	0.000000
0.7587920	-350989.095	0.000000
0.7580210	-351055.986	0.000000
0.7572500	-351122.363	0.000000
0.7564790	-351189.498	0.000000
0.7557080	-351255.937	0.000000
0.7549370	-351322.835	0.000000
0.7541660	-351389.894	0.000000
0.7533950	-351456.798	0.000000
0.7526240	-351523.587	0.000000
0.7518530	-351590.216	0.000000
0.7510820	-351656.911	0.000000
0.7503110	-351724.055	0.000000
0.7495400	-351790.465	0.000000
0.7487690	-351856.151	0.000000
0.7479980	-351922.112	0.000000
0.7472270	-351987.962	0.000000
0.7464560	-352053.242	0.000000
0.7456850	-352118.901	0.000000
0.7449140	-352184.171	0.000000
0.7441430	-352250.349	0.000000
0.7433720	-352315.547	0.000000
0.7426010	-352380.451	0.000000
0.7418300	-352445.057	0.000000
0.7410590	-352509.436	0.000000
0.7402880	-352574.131	0.000000
0.7395170	-352638.874	0.000000
0.7387460	-352703.650	0.000000
0.7379750	-352768.741	0.000000
0.7372040	-352833.519	0.000000
0.7364330	-352896.948	0.000000
0.7356620	-352960.391	0.000000
0.7348910	-353024.702	0.000000
0.7341200	-353087.946	0.000000
0.7333490	-353151.138	0.000000
0.7325780	-353213.746	0.000000
0.7318070	-353276.874	0.000000
0.7310360	-353339.411	0.000000
0.7302650	-353401.845	0.000000
0.7294940	-353464.750	0.000000
0.7287230	-353526.024	0.000000
0.7279520	-353588.403	0.000000
0.7271810	-353649.355	0.000000
0.7264100	-353709.729	0.000000
0.7256390	-353770.754	0.000000
0.7248680	-353832.018	0.000000
0.7240970	-353893.027	0.000000
0.7233260	-353954.135	0.000000
0.7225550	-354014.747	0.000000
0.7217840	-354074.939	0.000000
0.7210130	-354134.181	0.000000
0.7202420	-354194.113	0.000000
0.7194710	-354253.641	0.000000
0.7187000	-354313.272	0.000000
0.7179290	-354373.469	0.000000
0.7171580	-354433.200	0.000000
0.7163870	-354492.206	0.000000
0.7156160	-354551.223	0.000000
0.7148450	-354609.752	0.000000
0.7140740	-354668.477	0.000000
0.7133030	-354727.153	0.000000
0.7125320	-354785.579	0.000000
0.7117610	-354843.487	0.000000
0.7109900	-354901.604	0.000000
0.7102190	-354960.068	0.000000
0.7094480	-355018.114	0.000000
0.7086770	-355076.151	0.000000
0.7079060	-355133.262	0.000000
0.7071350	-355191.252	0.000000
0.7063640	-355248.486	0.000000
0.7055930	-355305.446	0.000000
0.7048220	-355361.645	0.000000
0.7040510	-355418.882	0.000000
0.7032800	-355476.056	0.000000
0.7025090	-355533.106	0.000000
0.7017380	-355589.320	0.000000
0.7009670	-355645.029	0.000000
0.7001960	-355700.659	0.000000
0.6994250	-355756.745	0.000000
0.6986540	-355811.460	0.000000
0.6978830	-355867.319	0.000000
0.6971120	-355923.212	0.000000
0.6963410	-355979.674	0.000000
0.6955700	-356034.696	0.000000
0.6947990	-356089.523	0.000000
0.6940280	-356144.624	0.000000
0.6932570	-356199.076	0.000000
0.6924860	-356254.652	0.000000
0.6917150	-356309.680	0.000000
0.6909440	-356365.239	0.000000
0.6901730	-356420.377	0.000000
0.6894020	-356475.033	0.000000
0.6886310	-356528.808	0.000000
0.6878600	-356581.870	0.000000
0.6870890	-356635.539	0.000000
0.6863180	-356689.559	0.000000
0.6855470	-356743.074	0.000000
0.6847760	-356796.817	0.000000
0.6840050	-356849.819	0.000000
0.6832340	-356902.793	0.000000
0.6824630	-356955.054	0.000000
0.6816920	-357008.646	0.000000
0.6809210	-357061.490	0.000000
0.6801500	-357114.494	0.000000
0.6793790	-357168.269	0.000000
0.6786080	-357221.584	0.000000
0.6778370	-357274.336	0.000000
0.6770660	-357326.757	0.000000
0.6762950	-357379.068	0.000000
0.6755240	-357431.564	0.000000
0.6747530	-357483.634	0.000000
0.6739820	-357535.644	0.000000
0.6732110	-357587.837	0.000000
0.6724400	-357639.723	0.000000
0.6716690	-357691.832	0.000000
0.6708980	-357743.890	0.000000
0.6701270	-357796.569	0.000000
0.6693560	-357848.805	0.000000
0.6685850	-357901.830	0.000000
0.6678140	-357954.374	0.000000
0.6670430	-358006.687	0.000000
0.6662720	-358059.257	0.000000
0.6655010	-358112.433	0.000000
0.6647300	-358164.679	0.000000
0.6639590	-358216.965	0.000000
0.6631880	-358269.056	0.000000
0.6624170	-358321.207	0.000000
0.6616460	-358372.855	0.000000
0.6608750	-358425.409	0.000000
0.6601040	-358477.567	0.000000
0.6593330	-358529.457	0.000000
0.6585620	-358581.924	0.000000
0.6577910	-358634.449	0.000000
0.6570200	-358686.628	0.000000
0.6562490	-358738.995	0.000000
0.6554780	-358790.940	0.000000
0.6547070	-358844.034	0.000000
0.6539360	-358896.571	0.000000
0.6531650	-358949.163	0.000000
0.6523940	-359001.352	0.000000
0.6516230	-359053.395	0.000000
0.6508520	-359106.025	0.000000
0.6500810	-359158.524	0.000000
0.6493100	-359210.757	0.000000
0.6485390	-359263.855	0.000000
0.6477680	-359316.749	0.000000
0.6469970	-359369.756	0.000000
0.6462260	-359422.394	0.000000
0.6454550	-359474.676	0.000000
0.6446840	-359527.492	0.000000
0.6439130	-359579.750	0.000000
0.6431420	-359632.341	0.000000
0.6423710	-359685.019	0.000000
0.6416000	-359738.255	0.000000
0.6408290	-359790.915	0.000000
0.6400580	-359843.352	0.000000
0.6392870	-359896.014	0.000000
0.6385160	-359949.155	0.000000
0.6377450	-360002.008	0.000000
0.6369740	-360054.435	0.000000
0.6362030	-360107.728	0.000000
0.6354320	-360160.803	0.000000
0.6346610	-360215.079	0.000000
0.6338900	-360268.558	0.000000
0.6331190	-360321.767	0.000000
0.6323480	-360375.763	0.000000
0.6315770	-360430.302	0.000000
0.6308060	-360484.294	0.000000
0.6300350	-360537.418	0.000000
0.6292640	-360590.893	0.000000
0.6284930	-360645.603	0.000000
0.6277220	-360699.878	0.000000
0.6269510	-360754.131	0.000000
0.6261800	-360807.637	0.000000
0.6254090	-360861.513	0.000000
0.6246380	-360915.266	0.000000
0.6238670	-360969.102	0.000000
0.6230960	-361023.234	0.000000
0.6223250	-361077.484	0.000000
0.6215540	-361132.589	0.000000
0.6207830	-361188.017	0.000000
0.6200120	-361242.757	0.000000
0.6192410	-361297.494	0.000000
0.6184700	-361353.172	0.000000
0.6176990	-361409.212	0.000000
0.6169280	-361464.320	0.000000
0.6161570	-361520.036	0.000000
0.6153860	-361576.346	0.000000
0.6146150	-361631.490	0.000000
0.6138440	-361687.565	0.000000
0.6130730	-361743.327	0.000000
0.6123020	-361798.176	0.000000
0.6115310	-361854.028	0.000000
0.6107600	-361910.110	0.000000
0.6099890	-361966.497	0.000000
0.6092180	-362023.307	0.000000
0.6084470	-362080.571	0.000000
0.6076760	-362137.895	0.000000
0.6069050	-362194.790	0.000000
0.6061340	-362253.593	0.000000
0.6053630	-362310.955	0.000000
0.6045920	-362368.803	0.000000
0.6038210	-362427.677	0.000000
0.6030500	-362486.120	0.000000
0.6022790	-362544.203	0.000000
0.6015080	-362601.937	0.000000
0.6007370	-362660.316	0.000000
0.5999660	-362718.843	0.000000
0.5991950	-362778.182	0.000000
0.5984240	-362837.625	0.000000
0.5976530	-362895.736	0.000000
0.5968820	-362955.605	0.000000
0.5961110	-363015.334	0.000000
0.5953400	-363074.949	0.000000
0.5945690	-363135.763	0.000000
0.5937980	-363196.251	0.000000
0.5930270	-363257.683	0.000000
0.5922560	-363318.390	0.000000
0.5914850	-363379.160	0.000000
0.5907140	-363439.561	0.000000
0.5899430	-363500.552	0.000000
0.5891720	-363562.765	0.000000
0.5884010	-363624.322	0.000000
0.5876300	-363686.386	0.000000
0.5868590	-363748.951	0.000000
0.5860880	-363811.035	0.000000
0.5853170	-363874.206	0.000000
0.5845460	-363937.122	0.000000
0.5837750	-364000.144	0.000000
0.5830040	-364063.454	0.000000
0.5822330	-364127.423	0.000000
0.5814620	-364191.257	0.000000
0.5806910	-364254.936	0.000000
0.5799200	-364319.123	0.000000
0.5791490	-364383.837	0.000000
0.5783780	-364448.083	0.000000
0.5776070	-364513.209	0.000000
0.5768360	-364578.225	0.000000
0.5760650	-364643.174	0.000000
0.5752940	-364708.350	0.000000
0.5745230	-364774.150	0.000000
0.5737520	-364840.518	0.000000
0.5729810	-364906.936	0.000000
0.5722100	-364973.436	0.000000
0.5714390	-365040.031	0.000000
0.5706680	-365106.187	0.000000
0.5698970	-365173.315	0.000000
0.5691260	-365240.603	0.000000
0.5683550	-365307.994	0.000000
0.5675840	-365375.493	0.000000
0.5668130	-365443.321	0.000000
0.5660420	-365511.974	0.000000
0.5652710	-365580.688	0.000000
0.5645000	-365648.837	0.000000
0.5637290	-365717.662	0.000000
0.5629580	-365786.397	0.000000
0.5621870	-365855.299	0.000000
0.5614160	-365925.667	0.000000
0.5606450	-365995.401	0.000000
0.5598740	-366065.702	0.000000
0.5591030	-366136.482	0.000000
0.5583320	-366207.934	0.000000
0.5575610	-366279.121	0.000000
0.5567900	-366351.096	0.000000
0.5560190	-366423.388	0.000000
0.5552480	-366495.731	0.000000
0.5544770	-366568.773	0.000000
0.5537060	-366642.545	0.000000
0.5529350	-366715.450	0.000000
0.5521640	-366789.217	0.000000
0.5513930	-366862.950	0.000000
0.5506220	-366937.806	0.000000
0.5498510	-367012.365	0.000000
0.5490800	-367086.712	0.000000
0.5483090	-367161.078	0.000000
0.5475380	-367236.519	0.000000
0.5467670	-367312.316	0.000000
0.5459960	-367388.769	0.000000
0.5452250	-367466.005	0.000000
0.5444540	-367542.552	0.000000
0.5436830	-367620.161	0.000000
0.5429120	-367697.798	0.000000
0.5421410	-367774.696	0.000000
0.5413700	-367852.520	0.000000
0.5405990	-367930.489	0.000000
0.5398280	-368008.696	0.000000
0.5390570	-368087.451	0.000000
0.5382860	-368166.451	0.000000
0.5375150	-368244.890	0.000000
0.5367440	-368323.413	0.000000
0.5359730	-368402.692	0.000000
0.5352020	-368482.397	0.000000
0.5344310	-368562.101	0.000000
0.5336600	-368642.413	0.000000
0.5328890	-368721.732	0.000000
0.5321180	-368802.331	0.000000
0.5313470	-368883.123	0.000000
0.5305760	-368964.012	0.000000
0.5298050	-369044.840	0.000000
0.5290340	-369126.465	0.000000
0.5282630	-369208.249	0.000000
0.5274920	-369290.510	0.000000
0.5267210	-369372.372	0.000000
0.5259500	-369454.892	0.000000
0.5251790	-369538.002	0.000000
0.5244080	-369621.882	0.000000
0.5236370	-369705.119	0.000000
0.5228660	-369788.653	0.000000
0.5220950	-369872.375	0.000000
0.5213240	-369956.126	0.000000
0.5205530	-370040.239	0.000000
0.5197820	-370124.957	0.000000
0.5190110	-370209.321	0.000000
0.5182400	-370294.086	0.000000
0.5174690	-370379.250	0.000000
0.5166980	-370463.758	0.000000
0.5159270	-370548.697	0.000000
0.5151560	-370634.790	0.000000
0.5143850	-370720.521	0.000000
0.5136140	-370806.607	0.000000
0.5128430	-370894.036	0.000000
0.5120720	-370980.292	0.000000
0.5113010	-371066.363	0.000000
0.5105300	-371153.786	0.000000
0.5097590	-371241.070	0.000000
0.5089880	-371327.699	0.000000
0.5082170	-371415.076	0.000000
0.5074460	-371503.070	0.000000
0.5066750	-371591.113	0.000000
0.5059040	-371679.364	0.000000
0.5051330	-371767.256	0.000000
0.5043620	-371854.521	0.000000
0.5035910	-371942.572	0.000000
0.5028200	-372031.705	0.000000
0.5020490	-372119.718	0.000000
0.5012780	-372207.724	0.000000
0.5005070	-372296.336	0.000000
0.4997360	-372384.962	0.000000
0.4989650	-372473.132	0.000000
0.4981940	-372561.005	0.000000
0.4974230	-372649.156	0.000000
0.4966520	-372737.128	0.000000
0.4958810	-372825.480	0.000000
0.4951100	-372914.477	0.000000
0.4943390	-373002.932	0.000000
0.4935680	-373091.378	0.000000
0.4927970	-373180.119	0.000000
0.4920260	-373269.006	0.000000
0.4912550	-373358.528	0.000000
0.4904840	-373447.582	0.000000
0.4897130	-373537.251	0.000000
0.4889420	-373626.862	0.000000
0.4881710	-373716.599	0.000000
0.4874000	-373806.698	0.000000
0.4866290	-373896.072	0.000000
0.4858580	-373985.900	0.000000
0.4850870	-374075.211	0.000000
0.4843160	-374164.490	0.000000
0.4835450	-374254.385	0.000000
0.4827740	-374343.733	0.000000
0.4820030	-374433.335	0.000000
0.4812320	-374522.875	0.000000
0.4804610	-374612.530	0.000000
0.4796900	-374702.061	0.000000
0.4789190	-374791.316	0.000000
0.4781480	-374880.960	0.000000
0.4773770	-374970.459	0.000000
0.4766060	-375060.845	0.000000
0.4758350	-375151.132	0.000000
0.4750640	-375240.547	0.000000
0.4742930	-375330.098	0.000000
0.4735220	-375419.427	0.000000
0.4727510	-375509.040	0.000000
0.4719800	-375598.023	0.000000
0.4712090	-375687.354	0.000000
0.4704380	-375777.245	0.000000
0.4696670	-375866.805	0.000000
0.4688960	-375955.880	0.000000
0.4681250	-376044.604	0.000000
0.4673540	-376131.950	0.000000
0.4665830	-376220.109	0.000000
0.4658120	-376308.359	0.000000
0.4650410	-376396.890	0.000000
0.4642700	-376484.853	0.000000
0.4634990	-376573.174	0.000000
0.4627280	-376661.057	0.000000
0.4619570	-376748.649	0.000000
0.4611860	-376836.219	0.000000
0.4604150	-376923.627	0.000000
0.4596440	-377012.003	0.000000
0.4588730	-377100.789	0.000000
0.4581020	-377189.041	0.000000
